\DATE= 'Wed Oct  3 02:43:21 2007'
\APERNAME= 'LL2'
\BUNIT= 'e/s/pix'
\CAL_SET= 'irs_2007_02_12-pb-pfc-trim-omeg-lhbiasfork.cal'
\SOFTWARE= 'CUBISM'
\SOFT_VER= 'v1.50pre3 (March-2007)'
\FILENAME= 'll2.tbl'
\ COMMENT This file contains a spectral extraction created from
\ COMMENT an IRS spectral mapping dataset.
\ Extraction Rectangle:
\ # Box: 20:34:49.483,+60:09:11.56 ; 20:34:52.194,+60:08:56.22
\ #      20:34:54.661,+60:09:20.50 ; 20:34:51.950,+60:09:35.85
|   WAVELENGTH    |      FLUX       | FLUX_UNCERTAINTY |
|      real       |      real       |       real       |
|       um        |     e/s/pix     |     e/s/pix      |
         14.26661          72.52611          0.1345523
         14.35830          70.47046          0.1140141
         14.45000          68.08153          0.1202518
         14.54169          65.75542          0.1083449
         14.63338          65.89582          0.1156428
         14.72508          65.38367          0.1215982
         14.81677          65.46034          0.1141581
         14.90846          65.61466          0.1110906
         15.00015          65.12855          0.1077427
         15.09185          65.23301          0.1122587
         15.18354          66.09893          0.1013433
         15.27523          67.78494          0.1067963
         15.36693          70.50297          0.1035497
         15.45862          72.30997          0.1136869
         15.55031          78.16178          0.1042596
         15.64200          76.99962          0.1008466
         15.73370          74.42458          0.1034932
         15.82539          76.26706          0.1048990
         15.91708          79.00723          0.1213493
         16.00878          80.07004          0.1225254
         16.10047          80.63820          0.1233223
         16.19216          82.74116          0.1276378
         16.28386          93.11871          0.1377715
         16.37555          109.2659          0.1454967
         16.46724          118.6457          0.1600029
         16.55893          114.4405          0.1596415
         16.65063          107.5692          0.1458608
         16.74232          110.5248          0.4632249
         16.83401          112.9796          0.5149424
         16.92570          120.7532          0.1667816
         17.01740          135.5757          0.1499733
         17.10909          129.9847          0.1684069
         17.20078          120.1952          0.1535462
         17.29248          121.9966          0.1653121
         17.38417          121.3458          0.1743745
         17.47586          112.8779          0.1609655
         17.56756          105.1859          0.1420107
         17.65925          104.0713          0.1545884
         17.75094          103.9295          0.1511946
         17.84263          103.3160          0.4645557
         17.93433          101.5402          0.5051597
         18.02602          98.82723          0.1501436
         18.11771          97.26508          0.1534123
         18.20941          97.11503          0.1760415
         18.30110          98.95022          0.1538305
         18.39279          100.0951          0.1589845
         18.48449          101.7006          0.1532246
         18.57618          108.7416          0.1846790
         18.66787          138.5206          0.1963963
         18.75956          140.5397          0.1936459
         18.85126          114.4757          0.1816456
         18.94295          109.2474          0.1788805
         19.03464          104.6068          0.1717653
         19.12634          113.4412          0.1858188
         19.21803          113.1821          0.1852933
         19.30972          114.0577          0.1824732
         19.40141          114.2228          0.1876969
         19.49311          115.1711          0.2384295
         19.58480          116.5709          0.2078145
         19.67649          119.5823          0.1917667
         19.76819          121.6339          0.2280857
         19.85988          123.6913          0.2499160
         19.95157          123.9055          0.2484385
         20.04326          126.5493          0.2401498
         20.13496          126.9822          0.2328250
         20.22665          127.5955          0.2389292
         20.31834          129.9261          0.2265534
         20.41004          127.0378          0.2281590
         20.50173          139.7661          0.2565279
         20.59342          135.3070          0.2359995
         20.68512          126.0648          0.2956176
         20.77681          133.5824          0.2564866
         20.86850          132.0117          0.2447374
         20.96019          130.4670          0.2681690
         21.05189          126.7726          0.2468954
