\DATE= 'Thu Oct 11 21:05:02 2007'
\APERNAME= 'SL1'
\BUNIT= 'e/s/pix'
\CAL_SET= 'irs_2007_02_12-pb-pfc-trim-omeg-lhbiasfork.cal'
\SOFTWARE= 'CUBISM'
\SOFT_VER= 'v1.50pre3 (March-2007)'
\FILENAME= 'sl1.tbl'
\ COMMENT This file contains a spectral extraction created from
\ COMMENT an IRS spectral mapping dataset.
\ Extraction Rectangle:
\ # Box: 12:56:43.370,+21:40:59.06 ; 12:56:43.714,+21:40:56.25
\ #      12:56:43.915,+21:41:01.04 ; 12:56:43.572,+21:41:03.85
|   WAVELENGTH    |      FLUX       | FLUX_UNCERTAINTY |
|      real       |      real       |       real       |
|       um        |     e/s/pix     |     e/s/pix      |
         7.533706          203.8140           2.411384
         7.595799          259.4750           2.100396
         7.657894          255.6085           2.234841
         7.719988          247.8961           2.099554
         7.782082          245.8876           1.749712
         7.844176          240.9821           1.501264
         7.906271          225.0261           1.227249
         7.968365          206.9345           1.163964
         8.030458          184.6132           1.745716
         8.092554          164.0482           1.324982
         8.154648          152.4396           1.339703
         8.216742          149.4366           1.387649
         8.278836          148.5022           1.389210
         8.340930          147.8312           1.043615
         8.403025          148.7717           1.320923
         8.465118          155.0521           1.785683
         8.527213          164.1250           1.481506
         8.589307          169.4345           1.714854
         8.651402          161.3979           1.175856
         8.713495          141.2296           1.646948
         8.775590          122.8973           1.114125
         8.837685          104.1248           1.404069
         8.899778          90.25484           1.052213
         8.961872          85.81161           1.087399
         9.023967          80.06154           1.091890
         9.086061          72.17045          0.9657926
         9.148155          71.22047           1.148031
         9.210249          70.61724           1.212142
         9.272344          67.84103           1.091690
         9.334438          67.68715          0.8338003
         9.396532          66.11572          0.7560578
         9.458626          66.39034           1.114021
         9.520720          65.24015           1.031211
         9.582815          66.02419          0.8983249
         9.644909          81.30294           1.145789
         9.707003          78.85040          0.8481605
         9.769097          64.09721          0.8238602
         9.831192          62.24492          0.9325025
         9.893286          60.49500          0.9326646
         9.955380          60.67041           1.176502
         10.01747          60.36920           1.102817
         10.07957          60.43740           1.382343
         10.14166          60.73354           1.094769
         10.20376          60.57708           1.069216
         10.26585          58.54270          0.9645047
         10.32795          61.31369          0.9063995
         10.39004          58.39589           1.075689
         10.45213          63.39073          0.9170411
         10.51423          69.37379          0.9482520
         10.57632          73.14558           1.021561
         10.63842          76.15948           1.008423
         10.70051          80.04301           1.897533
         10.76260          78.63885          0.8466468
         10.82470          79.11218          0.7668946
         10.88679          81.83280           1.012514
         10.94889          92.70361          0.8064004
         11.01098          110.4062          0.9183736
         11.07308          121.6649           1.163935
         11.13517          159.5566          0.9081666
         11.19726          259.1948           1.446457
         11.25936          322.1301           1.165198
         11.32145          295.3087           1.036498
         11.38355          240.7509           1.175781
         11.44564          204.9548           1.073636
         11.50774          172.8608           1.260810
         11.56983          154.0759           1.295321
         11.63192          141.2938           1.617635
         11.69402          131.2461           1.496619
         11.75611          128.4380           1.202826
         11.81821          126.9965           1.119650
         11.88030          132.7971           1.425965
         11.94240          141.3935          0.9793943
         12.00449          143.0057           1.012671
         12.06658          140.4012          0.8977055
         12.12868          132.3698          0.9847402
         12.19077          131.6726           1.019482
         12.25287          147.8238           1.000118
         12.31496          157.8783           1.082197
         12.37705          150.7046          0.8822227
         12.43915          151.8541          0.9542758
         12.50124          160.0769           1.046610
         12.56334          171.8184           1.000700
         12.62543          176.6314          0.8925874
         12.68753          182.4465           1.019018
         12.74962          190.5004           1.262347
         12.81171          228.2830           1.064975
         12.87381          194.4961           1.266087
         12.93590          136.2792           1.063716
         12.99800          120.4256           1.279453
         13.06009          115.6643           1.039599
         13.12218          114.1487           1.280605
         13.18428          116.0367           1.881551
         13.24637          113.5827           1.531973
         13.30847          112.3304           1.400526
         13.37056          110.0439          0.9248968
         13.43266          107.5939           1.144990
         13.49475          107.2008           1.177830
         13.55684          107.8378           1.101857
         13.61894          104.5565           1.248214
         13.68103          100.5556          0.9919364
         13.74313          96.44583           1.044163
         13.80522          91.13136          0.9404657
         13.86732          89.43933           1.149473
         13.92941          86.99241           1.145366
         13.99150          89.78973           1.388081
         14.05360          90.02799           1.153032
         14.11569          90.26371           1.189304
         14.17779          90.38258           2.492861
         14.23988          91.23660           1.401819
         14.30198          90.76521           1.491541
         14.36407          85.66333           1.210264
         14.42616          80.26597           1.703521
         14.48826          80.71380           1.477060
         14.55035          79.06052           1.851484
         14.61245          74.86463           1.404761
         14.67454          73.06277           1.171728
         14.73664          68.35816           1.175510
